# TOPAS Version: 3.9
# Parameter File: run.txt
# Results for scorer: EnergyDeposit
# Scored in component: Phantom
# X in 1 bin  of 30 cm
# Y in 1 bin  of 30 cm
# Z in 300 bins of 0.1 cm
# EnergyDeposit ( MeV ) : Sum   
0, 0, 0, 34759.69140625
0, 0, 1, 34820.5703125
0, 0, 2, 34920.36328125
0, 0, 3, 35043.05078125
0, 0, 4, 35129.2578125
0, 0, 5, 35305.59375
0, 0, 6, 35311.25
0, 0, 7, 35237.30859375
0, 0, 8, 35537.69140625
0, 0, 9, 35536.46875
0, 0, 10, 35437.05078125
0, 0, 11, 35560.171875
0, 0, 12, 35841.5234375
0, 0, 13, 35917.515625
0, 0, 14, 35707.22265625
0, 0, 15, 35592.89453125
0, 0, 16, 35756.7890625
0, 0, 17, 35500.7265625
0, 0, 18, 35502.078125
0, 0, 19, 35795.8984375
0, 0, 20, 35934.0546875
0, 0, 21, 36292.171875
0, 0, 22, 35575.984375
0, 0, 23, 36287.640625
0, 0, 24, 36302.16015625
0, 0, 25, 36334.03125
0, 0, 26, 36775.72265625
0, 0, 27, 36326.94921875
0, 0, 28, 36314.1640625
0, 0, 29, 36537.8984375
0, 0, 30, 36392.5234375
0, 0, 31, 36473.40625
0, 0, 32, 36861.47265625
0, 0, 33, 36420.328125
0, 0, 34, 36499.30859375
0, 0, 35, 36540.66015625
0, 0, 36, 36439.0859375
0, 0, 37, 36677.76171875
0, 0, 38, 36769.53125
0, 0, 39, 36494.02734375
0, 0, 40, 36795.2734375
0, 0, 41, 36935.078125
0, 0, 42, 36921.19921875
0, 0, 43, 36824.45703125
0, 0, 44, 37028.9140625
0, 0, 45, 37071.65234375
0, 0, 46, 37147.02734375
0, 0, 47, 36950.6953125
0, 0, 48, 37213.80078125
0, 0, 49, 36727.19140625
0, 0, 50, 37125.1484375
0, 0, 51, 37387.33203125
0, 0, 52, 37188.98828125
0, 0, 53, 37511.390625
0, 0, 54, 37510.58203125
0, 0, 55, 37092.60546875
0, 0, 56, 37251.7890625
0, 0, 57, 37227.06640625
0, 0, 58, 37720.5546875
0, 0, 59, 37772
0, 0, 60, 37468.515625
0, 0, 61, 37814.87109375
0, 0, 62, 37953.87890625
0, 0, 63, 37678.875
0, 0, 64, 37656.140625
0, 0, 65, 38016.671875
0, 0, 66, 37688.1640625
0, 0, 67, 37634.05859375
0, 0, 68, 38035.109375
0, 0, 69, 37742.45703125
0, 0, 70, 37988.3515625
0, 0, 71, 37914.8671875
0, 0, 72, 37796.59765625
0, 0, 73, 37950.23828125
0, 0, 74, 38145.97265625
0, 0, 75, 38246.28125
0, 0, 76, 37973.95703125
0, 0, 77, 38166.984375
0, 0, 78, 37911.91015625
0, 0, 79, 38353.91796875
0, 0, 80, 38303.30078125
0, 0, 81, 38255.01953125
0, 0, 82, 38325.12109375
0, 0, 83, 38580.0625
0, 0, 84, 38719.6875
0, 0, 85, 38582.05859375
0, 0, 86, 38984.66015625
0, 0, 87, 38753.3359375
0, 0, 88, 39051.0703125
0, 0, 89, 38886.30078125
0, 0, 90, 38643.41796875
0, 0, 91, 38674.71875
0, 0, 92, 38826.7734375
0, 0, 93, 39095.03515625
0, 0, 94, 38813.234375
0, 0, 95, 38810.37109375
0, 0, 96, 39170.1484375
0, 0, 97, 39101.33203125
0, 0, 98, 38962.84375
0, 0, 99, 39193.97265625
0, 0, 100, 39197.6015625
0, 0, 101, 39303.20703125
0, 0, 102, 39528.6953125
0, 0, 103, 39107.17578125
0, 0, 104, 38767.39453125
0, 0, 105, 39407.41796875
0, 0, 106, 39535.3671875
0, 0, 107, 39363.35546875
0, 0, 108, 39368.36328125
0, 0, 109, 39595.59765625
0, 0, 110, 39618.70703125
0, 0, 111, 39749.50390625
0, 0, 112, 39593.28515625
0, 0, 113, 39726.484375
0, 0, 114, 39737.25390625
0, 0, 115, 39717.72265625
0, 0, 116, 39608.1171875
0, 0, 117, 39670.37890625
0, 0, 118, 40041.7578125
0, 0, 119, 39511.7890625
0, 0, 120, 39769.12109375
0, 0, 121, 40435.38671875
0, 0, 122, 40542.87890625
0, 0, 123, 40497.796875
0, 0, 124, 40889.1875
0, 0, 125, 40565.0546875
0, 0, 126, 40322.49609375
0, 0, 127, 40510.47265625
0, 0, 128, 40903.359375
0, 0, 129, 40857.2578125
0, 0, 130, 40526.69921875
0, 0, 131, 40729.3515625
0, 0, 132, 40783.3046875
0, 0, 133, 40605.51171875
0, 0, 134, 40705.6796875
0, 0, 135, 41222.28125
0, 0, 136, 40983.09765625
0, 0, 137, 41291.4765625
0, 0, 138, 41308.98828125
0, 0, 139, 41373.01953125
0, 0, 140, 41411.296875
0, 0, 141, 41511.25
0, 0, 142, 41556.296875
0, 0, 143, 41409.9609375
0, 0, 144, 41629.5625
0, 0, 145, 41661.7890625
0, 0, 146, 41746.68359375
0, 0, 147, 41790.0546875
0, 0, 148, 42016.296875
0, 0, 149, 41910.62109375
0, 0, 150, 42223.25390625
0, 0, 151, 42448.06640625
0, 0, 152, 42653.48046875
0, 0, 153, 42286.61328125
0, 0, 154, 42228.375
0, 0, 155, 42546.3515625
0, 0, 156, 42476.5859375
0, 0, 157, 42531.6015625
0, 0, 158, 42829.55078125
0, 0, 159, 42966.3046875
0, 0, 160, 42882.66796875
0, 0, 161, 42925.77734375
0, 0, 162, 42949.19921875
0, 0, 163, 43203.25390625
0, 0, 164, 43203.19140625
0, 0, 165, 43389.8046875
0, 0, 166, 43530.35546875
0, 0, 167, 43674.2734375
0, 0, 168, 43755.30859375
0, 0, 169, 43577.6953125
0, 0, 170, 44176.515625
0, 0, 171, 43883.1875
0, 0, 172, 44288.79296875
0, 0, 173, 44369.37109375
0, 0, 174, 44423.35546875
0, 0, 175, 44747.42578125
0, 0, 176, 44757.08984375
0, 0, 177, 44988.94140625
0, 0, 178, 45251.53515625
0, 0, 179, 45544.859375
0, 0, 180, 45442.20703125
0, 0, 181, 45624.22265625
0, 0, 182, 45664.4765625
0, 0, 183, 46057.44140625
0, 0, 184, 46423.93359375
0, 0, 185, 46690.3984375
0, 0, 186, 46391.1171875
0, 0, 187, 46625.7109375
0, 0, 188, 46667.28125
0, 0, 189, 46919.04296875
0, 0, 190, 47179.83203125
0, 0, 191, 47661.703125
0, 0, 192, 47962.08984375
0, 0, 193, 47770.15625
0, 0, 194, 48188.5859375
0, 0, 195, 48426.99609375
0, 0, 196, 48461.4296875
0, 0, 197, 49165.0390625
0, 0, 198, 49359.828125
0, 0, 199, 49301.90234375
0, 0, 200, 49479.26953125
0, 0, 201, 49883.984375
0, 0, 202, 50328.7109375
0, 0, 203, 51105.28515625
0, 0, 204, 51099.140625
0, 0, 205, 51400.6953125
0, 0, 206, 52054.71875
0, 0, 207, 52538.7265625
0, 0, 208, 52816.40625
0, 0, 209, 53398.44140625
0, 0, 210, 53815.51171875
0, 0, 211, 54292.875
0, 0, 212, 55220.3515625
0, 0, 213, 55701.20703125
0, 0, 214, 56237.76171875
0, 0, 215, 56767.51953125
0, 0, 216, 56935.48046875
0, 0, 217, 57354.1171875
0, 0, 218, 57656.37890625
0, 0, 219, 57840.01171875
0, 0, 220, 58187.703125
0, 0, 221, 58323.67578125
0, 0, 222, 58566.9921875
0, 0, 223, 58391.70703125
0, 0, 224, 58524.64453125
0, 0, 225, 58988.625
0, 0, 226, 58921.55078125
0, 0, 227, 58868.625
0, 0, 228, 58897.82421875
0, 0, 229, 59251.53125
0, 0, 230, 59388.3203125
0, 0, 231, 59458.58203125
0, 0, 232, 59628.21484375
0, 0, 233, 59460.63671875
0, 0, 234, 59375.375
0, 0, 235, 59538.44140625
0, 0, 236, 59795.40234375
0, 0, 237, 59738.9765625
0, 0, 238, 59721.390625
0, 0, 239, 59556.41015625
0, 0, 240, 59592.71875
0, 0, 241, 59737.16796875
0, 0, 242, 59900.1875
0, 0, 243, 59984.44921875
0, 0, 244, 59969.79296875
0, 0, 245, 59913.296875
0, 0, 246, 59528.0625
0, 0, 247, 59763.18359375
0, 0, 248, 59827.9765625
0, 0, 249, 59847.390625
0, 0, 250, 59818.0234375
0, 0, 251, 60010.046875
0, 0, 252, 59292.4140625
0, 0, 253, 59355.015625
0, 0, 254, 59548.80078125
0, 0, 255, 59433.2265625
0, 0, 256, 59435.83984375
0, 0, 257, 59414.51171875
0, 0, 258, 59288.796875
0, 0, 259, 59241.73828125
0, 0, 260, 59343.625
0, 0, 261, 59027.29296875
0, 0, 262, 58591.0078125
0, 0, 263, 58665.390625
0, 0, 264, 58710.61328125
0, 0, 265, 58647.27734375
0, 0, 266, 57658.8984375
0, 0, 267, 56517.9609375
0, 0, 268, 54863.5234375
0, 0, 269, 52688.30078125
0, 0, 270, 49394.8515625
0, 0, 271, 45280.3828125
0, 0, 272, 39899.9140625
0, 0, 273, 34660.375
0, 0, 274, 29243.98046875
0, 0, 275, 23472.6953125
0, 0, 276, 18146.86328125
0, 0, 277, 13637.1123046875
0, 0, 278, 9636.0576171875
0, 0, 279, 6745.10205078125
0, 0, 280, 4373.35205078125
0, 0, 281, 2723.11328125
0, 0, 282, 1878.078247070312
0, 0, 283, 1213.448852539062
0, 0, 284, 866.4212646484375
0, 0, 285, 619.670166015625
0, 0, 286, 505.80712890625
0, 0, 287, 454.9605712890625
0, 0, 288, 438.73681640625
0, 0, 289, 473.7164001464844
0, 0, 290, 455.4380187988281
0, 0, 291, 398.53173828125
0, 0, 292, 484.4021911621094
0, 0, 293, 436.1587219238281
0, 0, 294, 494.6394348144531
0, 0, 295, 396.0819702148438
0, 0, 296, 459.1593017578125
0, 0, 297, 481.763427734375
0, 0, 298, 415.9556579589844
0, 0, 299, 431.903076171875
