# TOPAS Version: 3.9
# Parameter File: run.txt
# Results for scorer: ProtonFluence
# Filtered by: OnlyIncludeParticlesOfGeneration = "Primary"
# Filtered by: OnlyIncludeIfIncidentParticlesNamed = 1 "proton"
# Scored on surface: Phantom/ZPlusSurface
# X in 1 bin  of 30 cm
# Y in 1 bin  of 30 cm
# Z in 300 bins of 0.1 cm
# SurfaceTrackCount : Sum   
0, 0, 0, 65717
0, 0, 1, 65634
0, 0, 2, 65548
0, 0, 3, 65466
0, 0, 4, 65375
0, 0, 5, 65297
0, 0, 6, 65214
0, 0, 7, 65138
0, 0, 8, 65046
0, 0, 9, 64964
0, 0, 10, 64895
0, 0, 11, 64811
0, 0, 12, 64730
0, 0, 13, 64649
0, 0, 14, 64563
0, 0, 15, 64489
0, 0, 16, 64435
0, 0, 17, 64371
0, 0, 18, 64304
0, 0, 19, 64230
0, 0, 20, 64165
0, 0, 21, 64068
0, 0, 22, 64011
0, 0, 23, 63916
0, 0, 24, 63844
0, 0, 25, 63748
0, 0, 26, 63667
0, 0, 27, 63585
0, 0, 28, 63516
0, 0, 29, 63443
0, 0, 30, 63373
0, 0, 31, 63310
0, 0, 32, 63223
0, 0, 33, 63146
0, 0, 34, 63073
0, 0, 35, 62991
0, 0, 36, 62917
0, 0, 37, 62846
0, 0, 38, 62755
0, 0, 39, 62687
0, 0, 40, 62600
0, 0, 41, 62518
0, 0, 42, 62446
0, 0, 43, 62359
0, 0, 44, 62290
0, 0, 45, 62198
0, 0, 46, 62122
0, 0, 47, 62049
0, 0, 48, 61976
0, 0, 49, 61912
0, 0, 50, 61825
0, 0, 51, 61749
0, 0, 52, 61670
0, 0, 53, 61587
0, 0, 54, 61506
0, 0, 55, 61440
0, 0, 56, 61357
0, 0, 57, 61289
0, 0, 58, 61207
0, 0, 59, 61130
0, 0, 60, 61069
0, 0, 61, 60984
0, 0, 62, 60894
0, 0, 63, 60820
0, 0, 64, 60751
0, 0, 65, 60670
0, 0, 66, 60604
0, 0, 67, 60534
0, 0, 68, 60442
0, 0, 69, 60366
0, 0, 70, 60290
0, 0, 71, 60210
0, 0, 72, 60154
0, 0, 73, 60080
0, 0, 74, 60005
0, 0, 75, 59931
0, 0, 76, 59857
0, 0, 77, 59772
0, 0, 78, 59702
0, 0, 79, 59619
0, 0, 80, 59547
0, 0, 81, 59482
0, 0, 82, 59404
0, 0, 83, 59323
0, 0, 84, 59238
0, 0, 85, 59174
0, 0, 86, 59087
0, 0, 87, 59007
0, 0, 88, 58922
0, 0, 89, 58855
0, 0, 90, 58777
0, 0, 91, 58696
0, 0, 92, 58623
0, 0, 93, 58535
0, 0, 94, 58453
0, 0, 95, 58370
0, 0, 96, 58298
0, 0, 97, 58227
0, 0, 98, 58164
0, 0, 99, 58099
0, 0, 100, 58023
0, 0, 101, 57945
0, 0, 102, 57862
0, 0, 103, 57787
0, 0, 104, 57736
0, 0, 105, 57651
0, 0, 106, 57578
0, 0, 107, 57497
0, 0, 108, 57421
0, 0, 109, 57355
0, 0, 110, 57276
0, 0, 111, 57199
0, 0, 112, 57133
0, 0, 113, 57056
0, 0, 114, 56967
0, 0, 115, 56893
0, 0, 116, 56830
0, 0, 117, 56766
0, 0, 118, 56687
0, 0, 119, 56622
0, 0, 120, 56544
0, 0, 121, 56475
0, 0, 122, 56387
0, 0, 123, 56310
0, 0, 124, 56218
0, 0, 125, 56155
0, 0, 126, 56093
0, 0, 127, 56018
0, 0, 128, 55939
0, 0, 129, 55853
0, 0, 130, 55786
0, 0, 131, 55708
0, 0, 132, 55638
0, 0, 133, 55573
0, 0, 134, 55497
0, 0, 135, 55420
0, 0, 136, 55350
0, 0, 137, 55277
0, 0, 138, 55199
0, 0, 139, 55132
0, 0, 140, 55064
0, 0, 141, 54995
0, 0, 142, 54919
0, 0, 143, 54844
0, 0, 144, 54757
0, 0, 145, 54680
0, 0, 146, 54603
0, 0, 147, 54533
0, 0, 148, 54445
0, 0, 149, 54378
0, 0, 150, 54294
0, 0, 151, 54225
0, 0, 152, 54157
0, 0, 153, 54089
0, 0, 154, 54025
0, 0, 155, 53947
0, 0, 156, 53871
0, 0, 157, 53797
0, 0, 158, 53720
0, 0, 159, 53641
0, 0, 160, 53583
0, 0, 161, 53515
0, 0, 162, 53454
0, 0, 163, 53381
0, 0, 164, 53312
0, 0, 165, 53241
0, 0, 166, 53171
0, 0, 167, 53101
0, 0, 168, 53026
0, 0, 169, 52963
0, 0, 170, 52874
0, 0, 171, 52803
0, 0, 172, 52715
0, 0, 173, 52632
0, 0, 174, 52565
0, 0, 175, 52484
0, 0, 176, 52406
0, 0, 177, 52322
0, 0, 178, 52242
0, 0, 179, 52164
0, 0, 180, 52096
0, 0, 181, 52032
0, 0, 182, 51954
0, 0, 183, 51873
0, 0, 184, 51794
0, 0, 185, 51712
0, 0, 186, 51638
0, 0, 187, 51556
0, 0, 188, 51489
0, 0, 189, 51413
0, 0, 190, 51337
0, 0, 191, 51258
0, 0, 192, 51174
0, 0, 193, 51102
0, 0, 194, 51013
0, 0, 195, 50932
0, 0, 196, 50851
0, 0, 197, 50756
0, 0, 198, 50670
0, 0, 199, 50596
0, 0, 200, 50528
0, 0, 201, 50461
0, 0, 202, 50388
0, 0, 203, 50296
0, 0, 204, 50213
0, 0, 205, 50129
0, 0, 206, 50021
0, 0, 207, 49922
0, 0, 208, 49816
0, 0, 209, 49697
0, 0, 210, 49569
0, 0, 211, 49437
0, 0, 212, 49265
0, 0, 213, 49082
0, 0, 214, 48855
0, 0, 215, 48624
0, 0, 216, 48365
0, 0, 217, 48095
0, 0, 218, 47792
0, 0, 219, 47505
0, 0, 220, 47178
0, 0, 221, 46867
0, 0, 222, 46485
0, 0, 223, 46146
0, 0, 224, 45793
0, 0, 225, 45418
0, 0, 226, 45054
0, 0, 227, 44690
0, 0, 228, 44327
0, 0, 229, 43929
0, 0, 230, 43519
0, 0, 231, 43103
0, 0, 232, 42660
0, 0, 233, 42213
0, 0, 234, 41768
0, 0, 235, 41314
0, 0, 236, 40871
0, 0, 237, 40403
0, 0, 238, 39921
0, 0, 239, 39441
0, 0, 240, 38941
0, 0, 241, 38431
0, 0, 242, 37886
0, 0, 243, 37346
0, 0, 244, 36806
0, 0, 245, 36233
0, 0, 246, 35680
0, 0, 247, 35115
0, 0, 248, 34505
0, 0, 249, 33880
0, 0, 250, 33217
0, 0, 251, 32538
0, 0, 252, 31880
0, 0, 253, 31224
0, 0, 254, 30497
0, 0, 255, 29759
0, 0, 256, 28999
0, 0, 257, 28240
0, 0, 258, 27403
0, 0, 259, 26578
0, 0, 260, 25692
0, 0, 261, 24739
0, 0, 262, 23785
0, 0, 263, 22756
0, 0, 264, 21633
0, 0, 265, 20397
0, 0, 266, 19014
0, 0, 267, 17557
0, 0, 268, 15963
0, 0, 269, 14248
0, 0, 270, 12434
0, 0, 271, 10566
0, 0, 272, 8734
0, 0, 273, 7075
0, 0, 274, 5449
0, 0, 275, 4085
0, 0, 276, 2935
0, 0, 277, 2011
0, 0, 278, 1343
0, 0, 279, 828
0, 0, 280, 489
0, 0, 281, 283
0, 0, 282, 154
0, 0, 283, 71
0, 0, 284, 34
0, 0, 285, 14
0, 0, 286, 5
0, 0, 287, 1
0, 0, 288, 1
0, 0, 289, 1
0, 0, 290, 1
0, 0, 291, 0
0, 0, 292, 0
0, 0, 293, 0
0, 0, 294, 0
0, 0, 295, 0
0, 0, 296, 0
0, 0, 297, 0
0, 0, 298, 0
0, 0, 299, 0
